NO2-IUPAC      IUPAC at temp. T1/T2   220.0  298.0
 Bin  Wavelength (nm)   Solar Flux    X-sect(T1) X-sect(T2)
  1   177.49 - 178.30   1.023E+11     0.000E+00  0.000E+00
  2   178.30 - 179.26   1.443E+11     0.000E+00  0.000E+00
  3   179.26 - 180.38   1.624E+11     0.000E+00  0.000E+00
  4   180.38 - 181.65   2.136E+11     0.000E+00  0.000E+00
  5   181.65 - 183.08   2.998E+11     0.000E+00  0.000E+00
  6   183.08 - 184.65   2.927E+11     0.000E+00  0.000E+00
  7   184.65 - 186.37   3.082E+11     0.000E+00  0.000E+00
  8   186.37 - 188.24   4.765E+11     0.000E+00  0.000E+00
  9   188.24 - 190.25   6.149E+11     0.000E+00  0.000E+00
 10   190.25 - 192.42   7.709E+11     0.000E+00  0.000E+00
 11   192.42 - 194.73   9.205E+11     0.000E+00  0.000E+00
 12   194.73 - 197.20   1.345E+12     0.000E+00  0.000E+00
 13   197.20 - 198.50   7.772E+11     0.000E+00  0.000E+00
 14   198.50 - 200.00   9.630E+11     0.000E+00  0.000E+00
 15   200.00 - 202.50   1.930E+12     0.000E+00  0.000E+00
 16   202.50 - 204.00   1.291E+12     0.000E+00  0.000E+00
 17   204.00 - 206.50   2.593E+12     2.523E-19  2.513E-19
 18   206.50 - 209.50   4.391E+12     3.942E-19  4.053E-19
 19   209.50 - 212.50   8.905E+12     4.317E-19  4.544E-19
 20   212.50 - 215.50   1.081E+13     4.517E-19  4.805E-19
 21   215.50 - 218.50   1.153E+13     4.506E-19  4.797E-19
 22   218.50 - 221.50   1.451E+13     4.367E-19  4.634E-19
 23   221.50 - 225.00   2.131E+13     3.923E-19  4.150E-19
 24   225.00 - 229.00   2.063E+13     3.259E-19  3.445E-19
 25   229.00 - 233.00   2.298E+13     2.368E-19  2.533E-19
 26   233.00 - 237.50   2.396E+13     1.448E-19  1.623E-19
 27   237.50 - 242.50   2.822E+13     7.707E-20  8.560E-20
 28   242.50 - 248.00   3.842E+13     3.546E-20  4.026E-20
 29   248.00 - 254.00   3.790E+13     1.184E-20  1.494E-20
 30   254.00 - 260.00   7.566E+13     9.363E-21  1.304E-20
 31   260.00 - 265.50   1.072E+14     1.655E-20  1.968E-20
 32   265.50 - 270.50   1.715E+14     2.587E-20  2.628E-20
 33   270.50 - 275.50   1.277E+14     3.630E-20  3.539E-20
 34   275.50 - 280.00   1.204E+14     4.733E-20  4.652E-20
 35   280.00 - 283.50   1.214E+14     5.925E-20  5.929E-20
 36   283.50 - 286.50   1.035E+14     6.767E-20  6.823E-20
 37   286.50 - 289.00   1.229E+14     7.860E-20  7.819E-20
 38   289.00 - 291.00   1.601E+14     8.808E-20  8.676E-20
 39   291.00 - 293.00   1.540E+14     9.510E-20  9.418E-20
 40   293.00 - 295.00   1.526E+14     1.025E-19  1.022E-19
 41   295.00 - 296.75   1.481E+14     1.101E-19  1.104E-19
 42   296.75 - 298.25   1.190E+14     1.175E-19  1.184E-19
 43   298.25 - 299.55   8.872E+13     1.236E-19  1.250E-19
 44   299.55 - 300.50   6.089E+13     1.283E-19  1.300E-19
 45   300.50 - 301.50   7.177E+13     1.344E-19  1.362E-19
 46   301.50 - 302.50   6.438E+13     1.403E-19  1.421E-19
 47   302.50 - 303.50   9.648E+13     1.466E-19  1.484E-19
 48   303.50 - 304.50   8.564E+13     1.525E-19  1.543E-19
 49   304.50 - 305.50   9.661E+13     1.586E-19  1.604E-19
 50   305.50 - 306.50   8.102E+13     1.643E-19  1.661E-19
 51   306.50 - 307.45   8.878E+13     1.699E-19  1.715E-19
 52   307.45 - 308.50   1.037E+14     1.755E-19  1.770E-19
 53   308.50 - 309.45   8.216E+13     1.808E-19  1.822E-19
 54   309.45 - 310.50   8.354E+13     1.871E-19  1.882E-19
 55   310.50 - 311.50   1.308E+14     1.935E-19  1.939E-19
 56   311.50 - 312.45   1.019E+14     1.998E-19  1.993E-19
 57   312.45 - 313.50   1.135E+14     2.064E-19  2.050E-19
 58   313.50 - 314.50   1.144E+14     2.129E-19  2.106E-19
 59   314.50 - 315.70   1.297E+14     2.203E-19  2.175E-19
 60   315.70 - 317.20   1.504E+14     2.288E-19  2.281E-19
 61   317.20 - 318.70   1.733E+14     2.368E-19  2.382E-19
 62   318.70 - 320.30   1.893E+14     2.465E-19  2.505E-19
 63   320.30 - 322.50   2.728E+14     2.566E-19  2.635E-19
 64   322.50 - 326.95   6.081E+14     2.747E-19  2.872E-19
 65   326.95 - 334.95   1.296E+15     3.071E-19  3.274E-19
 66   334.95 - 345.00   1.609E+15     3.711E-19  3.953E-19
 67   345.00 - 355.05   1.766E+15     4.366E-19  4.608E-19
 68   355.05 - 365.03   1.744E+15     5.018E-19  5.170E-19
 69   365.03 - 375.00   2.097E+15     5.614E-19  5.641E-19
 70   375.00 - 389.95   3.038E+15     5.926E-19  5.967E-19
 71   389.95 - 412.45   6.791E+15     3.193E-19  3.505E-19
 72   412.45 - 437.55   9.281E+15     5.325E-21  1.006E-20
 73   437.55 - 485.10   2.224E+16     0.000E+00  0.000E+00
 74   485.10 - 560.10   3.676E+16     0.000E+00  0.000E+00
 75   560.10 - 635.10   3.960E+16     0.000E+00  0.000E+00
 76   635.10 - 760.20   6.302E+16     0.000E+00  0.000E+00
 77   760.20 - 850.00   4.013E+16     0.000E+00  0.000E+00

SOLAR FLUX
 1.023E+11 1.443E+11 1.624E+11 2.136E+11 2.998E+11 2.927E+11 3.082E+11 4.765E+11
 6.149E+11 7.709E+11 9.205E+11 1.345E+12 7.772E+11 9.630E+11 1.930E+12 1.291E+12
 2.593E+12 4.391E+12 8.905E+12 1.081E+13 1.153E+13 1.451E+13 2.131E+13 2.063E+13
 2.298E+13 2.396E+13 2.822E+13 3.842E+13 3.790E+13 7.566E+13 1.072E+14 1.715E+14
 1.277E+14 1.204E+14 1.214E+14 1.035E+14 1.229E+14 1.601E+14 1.540E+14 1.526E+14
 1.481E+14 1.190E+14 8.872E+13 6.089E+13 7.177E+13 6.438E+13 9.648E+13 8.564E+13
 9.661E+13 8.102E+13 8.878E+13 1.037E+14 8.216E+13 8.354E+13 1.308E+14 1.019E+14
 1.135E+14 1.144E+14 1.297E+14 1.504E+14 1.733E+14 1.893E+14 2.728E+14 6.081E+14
 1.296E+15 1.609E+15 1.766E+15 1.744E+15 2.097E+15 3.038E+15 6.791E+15 9.281E+15
 2.224E+16 3.676E+16 3.960E+16 6.302E+16 4.013E+16
NO2-IUPAC      IUPAC 220.
 0.000E+00 0.000E+00 0.000E+00 0.000E+00 0.000E+00 0.000E+00 0.000E+00 0.000E+00
 0.000E+00 0.000E+00 0.000E+00 0.000E+00 0.000E+00 0.000E+00 0.000E+00 0.000E+00
 2.523E-19 3.942E-19 4.317E-19 4.517E-19 4.506E-19 4.367E-19 3.923E-19 3.259E-19
 2.368E-19 1.448E-19 7.707E-20 3.546E-20 1.184E-20 9.363E-21 1.655E-20 2.587E-20
 3.630E-20 4.733E-20 5.925E-20 6.767E-20 7.860E-20 8.808E-20 9.510E-20 1.025E-19
 1.101E-19 1.175E-19 1.236E-19 1.283E-19 1.344E-19 1.403E-19 1.466E-19 1.525E-19
 1.586E-19 1.643E-19 1.699E-19 1.755E-19 1.808E-19 1.871E-19 1.935E-19 1.998E-19
 2.064E-19 2.129E-19 2.203E-19 2.288E-19 2.368E-19 2.465E-19 2.566E-19 2.747E-19
 3.071E-19 3.711E-19 4.366E-19 5.018E-19 5.614E-19 5.926E-19 3.193E-19 5.325E-21
 0.000E+00 0.000E+00 0.000E+00 0.000E+00 0.000E+00
NO2-IUPAC      IUPAC 298.
 0.000E+00 0.000E+00 0.000E+00 0.000E+00 0.000E+00 0.000E+00 0.000E+00 0.000E+00
 0.000E+00 0.000E+00 0.000E+00 0.000E+00 0.000E+00 0.000E+00 0.000E+00 0.000E+00
 2.513E-19 4.053E-19 4.544E-19 4.805E-19 4.797E-19 4.634E-19 4.150E-19 3.445E-19
 2.533E-19 1.623E-19 8.560E-20 4.026E-20 1.494E-20 1.304E-20 1.968E-20 2.628E-20
 3.539E-20 4.652E-20 5.929E-20 6.823E-20 7.819E-20 8.676E-20 9.418E-20 1.022E-19
 1.104E-19 1.184E-19 1.250E-19 1.300E-19 1.362E-19 1.421E-19 1.484E-19 1.543E-19
 1.604E-19 1.661E-19 1.715E-19 1.770E-19 1.822E-19 1.882E-19 1.939E-19 1.993E-19
 2.050E-19 2.106E-19 2.175E-19 2.281E-19 2.382E-19 2.505E-19 2.635E-19 2.872E-19
 3.274E-19 3.953E-19 4.608E-19 5.170E-19 5.641E-19 5.967E-19 3.505E-19 1.006E-20
 0.000E+00 0.000E+00 0.000E+00 0.000E+00 0.000E+00
